time (s) - Front Motor	Motor Voltage (V) - Front Motor	time (s) - Back Motor	Motor Voltage (V) - Back Motor
0	519.962	0	523.977
0.005	394.226	0.005	398.242
0.01	299.927	0.01	303.945
0.015	227.303	0.015	231.799
0.02	174.73	0.02	179.103
0.025	135.691	0.025	139.199
0.03	106.034	0.03	109.656
0.035	83.7944	0.035	87.503
0.04	67.5053	0.04	70.5054
0.045	54.2847	0.045	58.7685
0.05	45.3831	0.05	48.9596
0.055	38.9541	0.055	41.3634
0.06	33.5126	0.06	36.2935
0.065	28.1567	0.065	30.4427
0.07	25.4123	0.07	28.0914
0.075	23.3575	0.075	26.332
0.08	22.207	0.08	24.6294
0.085	20.9658	0.085	23.7384
0.09	20.0384	0.09	23.0741
0.095	19.7334	0.095	22.1929
0.1	19.1264	0.1	21.9179
0.105	18.6746	0.105	21.7156
0.11	17.0609	0.11	19.5156
0.115	17.1232	0.115	19.9023
0.12	17.5605	0.12	19.8094
0.125	18.5225	0.125	19.1131
0.13	18.2424	0.13	19.6
0.135	17.1444	0.135	17.5298
0.14	17.2115	0.14	18.3958
0.145	15.987	0.145	16.9969
0.15	16.9666	0.15	17.359
0.155	17.4685	0.155	17.8708
0.16	17.8534	0.16	18.2535
0.165	16.0984	0.165	17.2609
0.17	16.4366	0.17	18.1713
0.175	17.0806	0.175	18.4711
0.18	17.5722	0.18	18.6947
0.185	16.5226	0.185	16.9574
0.19	17.1534	0.19	17.5455
0.195	17.2481	0.195	18.3724
0.2	16.4311	0.2	16.5571
0.205	17.3345	0.205	16.9887
0.21	16.1137	0.21	15.8872
0.215	16.2046	0.215	14.0329
0.22	16.927	0.22	15.297
0.225	15.4249	0.225	14.9654
0.23	16.9651	0.23	15.3589
0.235	15.84	0.235	14.6107
0.24	16.6556	0.24	15.6992
0.245	16.2358	0.245	14.2233
0.25	15.917	0.25	13.0985
0.255	14.6617	0.255	13.2492
0.26	14.7215	0.26	12.3391
0.265	14.1369	0.265	12.2639
0.27	14.7047	0.27	11.1792
0.275	14.1193	0.275	11.3549
0.28	14.2995	0.28	10.8453
0.285	12.7653	0.285	8.7795
0.29	13.9145	0.29	11.5407
0.295	11.8083	0.295	6.59416
0.3	12.5211	0.3	7.17294
0.305	12.0393	0.305	8.60117
0.31	11.639	0.31	6.35805
0.315	12.7766	0.315	9.8479
0.32	10.5161	0.32	5.59325
0.325	11.9094	0.325	9.22529
0.33	11.1189	0.33	7.12956
0.335	10.266	0.335	5.76625
0.34	10.6473	0.34	7.00167
0.345	11.5523	0.345	7.28648
0.35	9.9359	0.35	6.44166
0.355	11.2319	0.355	6.5786
0.36	10.7072	0.36	8.1551
0.365	10.1289	0.365	6.16842
0.37	8.80934	0.37	5.51217
0.375	9.70243	0.375	6.41589
0.38	9.08423	0.38	5.02773
0.385	9.25451	0.385	6.63122
0.39	8.71741	0.39	5.14456
0.395	7.90855	0.395	4.38322
0.4	8.94309	0.4	5.44938
0.405	9.47074	0.405	6.47378
0.41	6.76735	0.41	3.65609
0.415	8.03179	0.415	4.83078
0.42	5.01403	0.42	2.99263
0.425	7.29137	0.425	3.65314
0.43	7.5022	0.43	5.62188
0.435	5.42283	0.435	2.65047
0.44	6.67518	0.44	4.18963
0.445	6.18046	0.445	3.42316
0.45	6.82481	0.45	5.11062
0.455	7.53435	0.455	6.12579
0.46	6.53438	0.46	5.06434
0.465	6.23974	0.465	3.75966
0.47	5.12724	0.47	3.61934
0.475	6.94379	0.475	4.14055
0.48	4.19641	0.48	1.95523
0.485	3.5184	0.485	2.18194
0.49	3.60837	0.49	1.69985
0.495	3.65101	0.495	1.3094
0.5	5.32353	0.5	2.65304
0.505	2.22431	0.505	1.32795
0.51	4.19639	0.51	2.61629
0.515	3.99959	0.515	1.90263
0.52	1.53611	0.52	0.2984
0.525	3.60301	0.525	1.75913
0.53	4.51714	0.53	3.46552
0.535	3.76307	0.535	2.82893
0.54	4.59417	0.54	4.23131
0.545	4.55167	0.545	2.59276
0.55	2.0604	0.55	0.438002
0.555	3.23938	0.555	2.35253
0.56	5.12307	0.56	2.76337
0.565	3.85232	0.565	2.3986
0.57	4.77566	0.57	3.5247
0.575	3.54832	0.575	2.93258
0.58	3.22571	0.58	1.83577
0.585	1.94592	0.585	1.9961
0.59	1.96575	0.59	1.08168
0.595	1.95514	0.595	0.366293
0.6	1.92166	0.6	-0.199853
0.605	1.2455	0.605	-0.0286296
0.61	2.37597	0.61	1.73771
0.615	-1.16022	0.615	-2.5722
0.62	1.12913	0.62	-0.867238
0.625	-2.16126	0.625	-4.6
0.63	-0.313146	0.63	-1.83679
0.635	-3.31128	0.635	-5.39924
0.64	-0.618589	0.64	-3.13388
0.645	-2.56674	0.645	-4.15566
0.65	-0.114259	0.65	-2.25903
0.655	1.08815	0.655	-0.226649
0.66	-1.35455	0.66	-2.04654
0.665	0.726941	0.665	-0.748593
0.67	-1.67979	0.67	-2.49611
0.675	0.815539	0.675	-1.53091
0.68	0.00264522	0.68	-1.48081
0.685	1.02997	0.685	0.194087
0.69	0.746643	0.69	-0.854214
0.695	1.93476	0.695	0.233145
0.7	2.43002	0.7	1.41688
0.705	3.41295	0.705	1.66552
0.71	-1.48332	0.71	-2.53461
0.715	0.408553	0.715	-1.37127
0.72	1.19008	0.72	0.110709
0.725	0.722196	0.725	-1.08249
0.73	1.38474	0.73	0.282929
0.735	1.86748	0.735	1.29312
0.74	1.56236	0.74	-0.640939
0.745	2.35199	0.745	0.163672
0.75	-2.4481	0.75	-3.86114
0.755	-0.484331	0.755	-2.56657
0.76	-1.31452	0.76	-2.65181
0.765	0.0862847	0.765	-1.46588
0.77	1.3661	0.77	-0.834139
0.775	1.68827	0.775	0.248817
0.78	2.3024	0.78	0.659948
0.785	2.36667	0.785	1.336
0.79	3.41281	0.79	0.816442
0.795	3.17779	0.795	1.41771
0.8	2.987	0.8	1.85445
0.805	2.1764	0.805	-0.510061
0.81	2.58658	0.81	-0.0286326
0.815	2.49775	0.815	0.70001
0.82	1.13807	0.82	-0.820165
0.825	2.38511	0.825	-0.954316
0.83	2.30058	0.83	-0.0641634
0.835	2.60944	0.835	0.202114
0.84	3.07	0.84	0.143796
0.845	2.77741	0.845	0.7089
0.85	1.26478	0.85	-0.934064
0.855	3.67543	0.855	0.891899
0.86	3.19446	0.86	1.21926
0.865	1.54048	0.865	-0.602066
0.87	1.94114	0.87	-0.336797
0.875	4.13578	0.875	1.26937
0.88	3.49273	0.88	1.43181
0.885	3.38252	0.885	1.15211
0.89	3.29004	0.89	0.922645
0.895	3.83633	0.895	0.105361
0.9	3.22598	0.9	0.482893
0.905	3.1402	0.905	0.364432
0.91	3.69146	0.91	-0.369658
0.915	3.08477	0.915	0.0702102
0.92	2.61475	0.92	0.38539
0.925	3.25963	0.925	-0.405394
0.93	2.7231	0.93	-0.00810459
0.935	4.35798	0.935	1.55353
0.94	4.54875	0.94	0.428525
0.945	3.6716	0.945	0.575108
0.95	3.38558	0.95	0.283278
0.955	3.16102	0.955	0.0444863
0.96	5.27342	0.96	0.885369
0.965	4.18654	0.965	0.855418
0.97	4.13012	0.97	0.0441833
0.975	3.93437	0.975	-0.44089
0.98	3.53604	0.98	-0.583286
0.985	4.89255	0.985	0.955296
0.99	4.48743	0.99	0.199788
0.995	3.93204	0.995	-0.145474
1	5.17071	1	1.24092
1.005	4.67719	1.005	0.371231
1.01	4.05545	1.01	-0.0597053
1.015	5.24432	1.015	1.26239
1.02	5.75333	1.02	2.63532
1.025	5.48133	1.025	0.986681
1.03	4.64382	1.03	0.353358
1.035	5.01787	1.035	-1.1542
1.04	5.9484	1.04	0.365515
1.045	5.61062	1.045	-0.79123
1.05	4.72373	1.05	-1.05569
1.055	6.33913	1.055	-0.234318
1.06	4.87927	1.06	-0.279157
1.065	5.82131	1.065	0.950531
1.07	5.49211	1.07	-0.423793
1.075	5.89004	1.075	1.20085
1.08	6.18758	1.08	2.41867
1.085	6.14379	1.085	0.266624
1.09	6.76085	1.09	1.30287
1.095	6.84084	1.095	2.46124
1.1	5.62145	1.1	1.27701
1.105	6.60045	1.105	1.79543
1.11	7.09743	1.11	2.41987
1.115	7.47429	1.115	2.88244
1.12	6.3342	1.12	1.31965
1.125	6.89272	1.125	2.03408
1.13	7.31573	1.13	2.5641
1.135	6.21023	1.135	1.0519
1.14	6.40773	1.14	2.19118
1.145	7.18035	1.145	2.41943
1.15	7.5225	1.15	2.82621
1.155	7.39625	1.155	3.51243
1.16	8.313	1.16	3.01394
1.165	7.99444	1.165	3.64448
1.17	8.14148	1.17	3.7297
1.175	6.20351	1.175	2.50935
1.18	7.41234	1.18	2.2318
1.185	7.31282	1.185	3.02803
1.19	8.2496	1.19	2.61202
1.195	7.94604	1.195	3.30439
1.2	8.10431	1.2	3.43597
1.205	8.46562	1.205	3.29029
1.21	8.11233	1.21	3.80355
1.215	7.84636	1.215	4.18773
1.22	8.6583	1.22	3.46269
1.225	8.26111	1.225	3.92329
1.23	7.57527	1.23	4.65493
1.235	8.45418	1.235	3.80862
1.24	8.10722	1.24	4.17826
1.245	8.47148	1.245	3.82925
1.25	8.12039	1.25	4.19002
1.255	8.24303	1.255	4.07288
1.26	8.57761	1.26	3.74066
1.265	8.20428	1.265	4.11401
1.27	7.92328	1.27	4.39326
1.275	8.33701	1.275	3.97646
1.28	8.02303	1.28	4.28637
1.285	8.41203	1.285	3.89257
1.29	8.07951	1.29	4.21972
1.295	8.4546	1.295	3.83885
1.3	8.11164	1.3	4.17571
1.305	8.09196	1.305	4.18906
1.31	7.8348	1.31	4.43971
1.315	9.9318	1.315	5.66686
1.32	9.46795	1.32	5.32032
1.325	8.87767	1.325	5.30107
1.33	9.29801	1.33	4.42188
1.335	10.413	1.335	6.29182
1.34	10.0745	1.34	5.56558
1.345	9.33679	1.345	5.50299
1.35	10.5381	1.35	7.03059
1.355	9.29937	1.355	7.01258
1.36	10.8937	1.36	7.80482
1.365	9.95485	1.365	7.23023
1.37	9.48833	1.37	6.56006
1.375	8.74771	1.375	6.44656
1.38	10.2357	1.38	7.64714
1.385	9.0716	1.385	7.52435
1.39	8.43106	1.39	7.19813
1.395	8.32877	1.395	6.57379
1.4	9.91369	1.4	7.77313
1.405	8.67385	1.405	7.79784
1.41	7.87848	1.41	7.68034
1.415	9.56688	1.415	8.63654
1.42	8.64321	1.42	8.24039
1.425	7.84358	1.425	8.04866
1.43	7.86342	1.43	7.28382
1.435	8.76608	1.435	9.1517
1.44	8.55222	1.44	8.14023
1.445	7.76265	1.445	8.00935
1.45	9.30703	1.45	9.10397
1.455	8.32573	1.455	8.76132
1.46	7.82241	1.46	8.27027
1.465	8.95314	1.465	9.72313
1.47	8.28202	1.47	9.02878
1.475	7.53142	1.475	8.75391
1.48	8.33118	1.48	10.5145
1.485	8.18066	1.485	9.28209
1.49	7.43867	1.49	8.98558
1.495	7.20499	1.495	8.43904
1.5	8.34694	1.5	10.0414
1.505	8.02376	1.505	9.1197
1.51	6.9058	1.51	9.30271
1.515	7.06886	1.515	8.43714
1.52	7.93064	1.52	10.378
1.525	7.43975	1.525	9.66777
1.53	6.82438	1.53	9.38106
1.535	8.35111	1.535	10.5073
1.54	7.49715	1.54	10.048
1.545	8.75483	1.545	11.1349
1.55	8.51565	1.55	9.82958
1.555	7.21936	1.555	9.96631
1.56	8.37877	1.56	11.2668
1.565	8.11624	1.565	10.0714
1.57	8.00596	1.57	9.08702
1.575	8.47175	1.575	11.1299
1.58	8.17185	1.58	10.0084
1.585	7.40807	1.585	9.70505
1.59	7.35406	1.59	8.95758
1.595	8.58853	1.595	10.4517
1.6	8.09346	1.6	9.69035
1.605	7.85915	1.605	8.98127
1.61	7.67996	1.61	8.45186
1.615	9.05908	1.615	9.87101
1.62	8.19259	1.62	9.53338
1.625	7.92115	1.625	8.9007
1.63	7.56572	1.63	8.57702
1.635	7.43616	1.635	8.19621
1.64	7.33555	1.64	7.913
1.645	9.16058	1.645	9.12987
1.65	8.63364	1.65	8.63546
1.655	7.60954	1.655	8.89256
1.66	7.93839	1.66	7.98747
1.665	8.08574	1.665	7.40694
1.67	7.81098	1.67	7.35582
1.675	9.26689	1.675	8.9853
1.68	8.70455	1.68	8.55896
1.685	8.27939	1.685	8.24163
1.69	7.95714	1.69	8.00607
1.695	7.71206	1.695	7.83184
1.7	8.15034	1.7	7.07812
1.705	7.8524	1.705	7.13853
1.71	7.00008	1.71	7.81175
1.715	8.88465	1.715	9.12268
1.72	8.78937	1.72	8.3119
1.725	8.33267	1.725	8.08812
1.73	8.22533	1.73	7.6842
1.735	7.90005	1.735	7.62511
1.74	8.03968	1.74	7.19629
1.745	9.42458	1.745	8.92438
1.75	8.80902	1.75	8.57201
1.755	9.59497	1.755	7.05923
1.76	8.30908	1.76	7.79913
1.765	7.9646	1.765	7.73324
1.77	8.32839	1.77	7.0608
1.775	7.97462	1.775	7.18219
1.78	8.09292	1.78	6.88874
1.785	7.4095	1.785	7.43991
1.79	7.27547	1.79	7.47388
1.795	9.22396	1.795	8.78025
1.8	9.27475	1.8	7.86799
1.805	8.68626	1.805	7.80954
1.81	8.00306	1.81	8.00669
1.815	8.35424	1.815	7.29014
1.82	7.99105	1.82	7.37846
1.825	7.47682	1.825	7.68569
1.83	7.95474	1.83	7.05169
1.835	7.6866	1.835	7.20192
1.84	7.86915	1.84	6.93011
1.845	7.85943	1.845	6.87204
1.85	9.27284	1.85	8.73775
1.855	8.67872	1.855	8.48861
1.86	9.09388	1.86	7.44021
1.865	8.29876	1.865	7.7596
1.87	8.80457	1.87	6.89619
1.875	7.6905	1.875	7.74126
1.88	8.48738	1.88	6.74183
1.885	8.07663	1.885	6.99986
1.89	7.7653	1.89	7.19585
1.895	7.52854	1.895	7.34531
1.9	7.73466	1.9	7.07291
1.905	9.16951	1.905	8.91834
1.91	8.83005	1.91	8.41547
1.915	8.71775	1.915	7.89525
1.92	7.62294	1.92	8.51491
1.925	8.28588	1.925	7.49485
1.93	7.91517	1.93	7.59695
1.935	7.39537	1.935	7.91454
1.94	7.48222	1.94	7.67526
1.945	7.68967	1.945	7.35273
1.95	9.12555	1.95	9.16057
1.955	8.54835	1.955	8.86805
1.96	8.49919	1.96	8.26419
1.965	8.31578	1.965	7.95712
1.97	7.9336	1.97	7.97071
1.975	7.64376	1.975	7.98338
1.98	8.04865	1.98	7.36989
1.985	7.72584	1.985	7.53553
1.99	6.85505	1.99	8.28771
1.995	7.44751	1.995	7.60558
2	7.26537	2	7.71973
2.005	6.88704	2.005	8.04636
2.01	7.08003	2.01	7.81386
2.015	7.36711	2.015	7.49642
2.02	7.19735	2.02	7.64269
2.025	8.73224	2.025	9.42025
2.03	8.61628	2.03	8.71808
2.035	7.75732	2.035	8.96275
2.04	7.87873	2.04	8.37994
2.045	7.58476	2.045	8.32718
2.05	7.98658	2.05	7.66462
2.055	7.03602	2.055	8.41893
2.06	6.94321	2.06	8.36388
2.065	6.87042	2.065	8.32508
2.07	7.19961	2.07	7.91152
2.075	7.06147	2.075	7.98569
2.08	7.81871	2.08	7.17979
2.085	6.89331	2.085	8.06801
2.09	7.20632	2.09	7.72643
2.095	7.68153	2.095	7.2291
2.1	7.17296	2.1	7.72039
2.105	7.02978	2.105	7.84993
2.11	9.21012	2.11	8.98948
2.115	8.56806	2.115	8.81901
2.12	8.47033	2.12	8.3067
2.125	8.25055	2.125	8.06829
2.13	8.22813	2.13	7.74643
2.135	7.20083	2.135	8.51488
2.14	7.67597	2.14	7.84494
2.145	7.79287	2.145	7.5813
2.15	7.1086	2.15	8.15487
2.155	7.36108	2.155	7.81872
2.16	7.55238	2.16	7.564
2.165	7.31087	2.165	7.75732
2.17	7.12661	2.17	7.90478
2.175	7.37223	2.175	7.63091
2.18	8.83685	2.18	9.47525
2.185	8.66826	2.185	8.82317
2.19	7.53137	2.19	9.34394
2.195	8.54983	2.195	7.86279
2.2	7.82549	2.2	8.2395
2.205	7.90749	2.205	7.89617
2.21	7.58402	2.21	8.02303
2.215	7.72526	2.215	7.73372
2.22	7.68476	2.22	7.66255
2.225	7.17135	2.225	8.09161
2.23	7.41155	2.23	7.78754
2.235	8.87213	2.235	9.60924
2.24	8.70054	2.24	8.94018
2.245	8.18691	2.245	8.82275
2.25	8.81104	2.25	7.72476
2.255	7.64544	2.255	8.53439
2.26	7.77839	2.26	8.13389
2.265	7.49317	2.265	8.21788
2.27	7.66312	2.27	7.89643
2.275	7.16712	2.275	8.27824
2.28	7.65894	2.28	7.70021
2.285	7.78841	2.285	7.50551
2.29	7.88752	2.29	7.3569
2.295	7.57693	2.295	7.6298
2.3	7.10238	2.3	8.07551
2.305	7.61029	2.305	7.5454
2.31	7.5133	2.31	7.62516
2.315	8.57549	2.315	9.88028
2.32	9.49943	2.32	8.142
2.325	8.80235	2.325	8.2278
2.33	8.03796	2.33	8.53319
2.335	8.71546	2.335	7.51091
2.34	8.60236	2.34	7.3649
2.345	8.13262	2.345	7.63975
2.35	8.16424	2.35	7.46146
2.355	8.18999	2.355	7.32515
2.36	7.19893	2.36	8.23278
2.365	7.46281	2.365	7.90577
2.37	7.66277	2.37	7.65794
2.375	6.80237	2.375	8.48192
2.38	7.78973	2.38	7.4667
2.385	7.28355	2.385	7.95145
2.39	8.54166	2.39	6.67674
2.395	9.13513	2.395	9.40108
2.4	8.69802	2.4	9.02427
2.405	8.85219	2.405	8.25915
2.41	8.72849	2.41	7.92416
2.415	8.63779	2.415	7.67034
2.42	7.94636	2.42	8.10289
2.425	8.05313	2.425	7.80146
2.43	8.13529	2.43	7.57282
2.435	7.81204	2.435	7.78571
2.44	7.32806	2.44	8.18643
2.445	7.59043	2.445	7.86111
2.45	7.78929	2.45	7.61456
2.455	7.55356	2.455	7.81401
2.46	7.52218	2.46	7.8177
2.465	7.74213	2.465	7.57648
2.47	7.90918	2.47	7.39299
2.475	8.03655	2.475	7.25279
2.48	7.50868	2.48	7.77055
2.485	7.73813	2.485	7.53301
2.49	7.28683	2.49	7.97776
2.495	7.5737	2.495	7.68547
2.5	7.79095	2.5	7.46368
2.505	7.56902	2.505	7.6817
2.51	7.16105	2.51	8.08624
2.515	7.48043	2.515	7.7638
2.52	9.38745	2.52	9.18478
2.525	8.54345	2.525	9.22254
2.53	8.53584	2.53	8.62502
2.535	8.53223	2.535	8.17431
2.54	8.29311	2.54	8.07225
2.545	8.59582	2.545	7.5132
2.55	8.34502	2.55	7.57128
2.555	7.77496	2.555	7.99634
2.56	7.9728	2.56	7.6893
2.565	8.1233	2.565	7.45645
2.57	7.85133	2.57	7.66619
2.575	7.40586	2.575	8.06454
2.58	7.69715	2.58	7.73745
2.585	7.91773	2.585	7.48957
2.59	7.4598	2.59	7.92656
2.595	7.74175	2.595	7.62846
2.6	7.95532	2.6	7.40231
2.605	7.49215	2.605	7.8556
2.61	7.77015	2.61	7.56972
2.615	7.3553	2.615	7.97822
2.62	7.66955	2.62	7.65874
2.625	7.28188	2.625	8.04203
2.63	8.00347	2.63	7.31671
2.635	7.53944	2.635	7.77748
2.64	9.09526	2.64	9.54956
2.645	8.75671	2.645	9.08183
2.65	8.74634	2.65	8.48706
2.655	8.74071	2.655	8.03843
2.66	8.11315	2.66	8.32487
2.665	8.2679	2.665	7.91387
2.67	7.37368	2.67	8.61548
2.675	7.47176	2.675	8.37252
2.68	7.78888	2.68	7.94633
2.685	7.01643	2.685	8.63656
2.69	7.83133	2.69	7.75957
2.695	7.67584	2.695	7.86808
2.7	7.31775	2.7	8.19052
2.705	7.43607	2.705	8.04504
2.71	7.76837	2.71	7.69195
2.715	7.39426	2.715	8.05006
2.72	7.7391	2.72	7.69279
2.725	7.3744	2.725	8.04776
2.73	7.7263	2.73	7.68814
2.735	7.36689	2.735	8.04134
2.74	7.72276	2.74	7.6804
2.745	7.36634	2.745	8.0326
2.75	8.11139	2.75	7.28397
2.755	7.66498	2.755	7.72727
2.76	7.56866	2.76	7.82085
2.765	7.6419	2.765	7.74513
2.77	7.55345	2.77	7.8313
2.775	7.24565	2.775	8.13698
2.78	8.02717	2.78	7.35345
2.785	7.60812	2.785	7.77057
2.79	7.91927	2.79	7.45756
2.795	7.5293	2.795	7.84571
2.8	7.23677	2.8	8.13646
2.805	7.64281	2.805	7.72868
2.81	7.71096	2.81	7.6588
2.815	8.00564	2.815	7.3624
2.82	7.60332	2.82	7.76301
2.825	9.59242	2.825	9.10302
2.83	8.81004	2.83	9.08005
2.835	9.23566	2.835	8.05005
2.84	9.17518	2.84	7.65685
2.845	8.50653	2.845	7.98487
2.85	8.63049	2.85	7.60506
2.855	8.48711	2.855	7.55617
2.86	7.99769	2.86	7.90102
2.865	8.25607	2.865	7.53382
2.87	7.82656	2.87	7.88134
2.875	7.5044	2.875	8.14162
2.88	7.88824	2.88	7.711
2.885	8.1783	2.885	7.38547
2.89	8.1595	2.89	7.3773
2.895	7.76351	2.895	7.75268
2.9	8.09197	2.9	7.40837
2.905	7.71503	2.905	7.77306
2.91	8.44472	2.91	7.03379
2.915	7.98683	2.915	7.48412
2.92	7.64339	2.92	7.82151
2.925	8.01127	2.925	7.44871
2.93	7.66389	2.93	7.79203
2.935	8.02882	2.935	7.42368
2.94	7.67922	2.94	7.77033
2.945	7.80394	2.945	7.64301
2.95	8.14108	2.95	7.30354
2.955	7.77065	2.955	7.67186
2.96	7.4928	2.96	7.94773
2.965	7.90988	2.965	7.52879
2.97	7.98635	2.97	7.45056
2.975	8.2873	2.975	7.1479
2.98	7.88972	2.98	7.54382
2.985	7.59151	2.985	7.8404
2.99	7.99333	2.99	7.43699
2.995	8.05835	2.995	7.37039
3	8.35071	3	7.07647
3.005	9.61209	3.005	9.14433
3.01	9.53272	3.01	8.4185
3.015	9.23687	3.015	8.11011
3.02	9.2586	3.02	7.63486
3.025	8.65164	3.025	7.90135
3.03	8.19642	3.03	8.10087
3.035	8.48049	3.035	7.62468
3.04	8.07028	3.04	7.89046
3.045	7.76263	3.045	8.08945
3.05	8.15738	3.05	7.61286
3.055	7.83018	3.055	7.87834
3.06	7.58479	3.06	8.0771
3.065	8.41318	3.065	7.2134
3.07	7.6424	3.07	7.95735
3.075	7.83313	3.075	7.74616
3.08	8.21981	3.08	7.3438
3.085	7.88655	3.085	7.66495
3.09	8.2621	3.09	7.27998
3.095	7.9205	3.095	7.61417
3.1	7.66431	3.1	7.86447
3.105	7.85913	3.105	7.66489
3.11	8.24887	3.11	7.27124
3.115	7.91791	3.115	7.59892
3.12	7.66971	3.12	7.84433
3.125	7.48356	3.125	8.02803
3.13	7.5825	3.13	7.92692
3.135	7.80226	3.135	7.70519
3.14	7.58523	3.14	7.92041
3.145	8.04795	3.145	7.45599
3.15	7.77173	3.15	7.73059
3.155	7.56457	3.155	7.93619
3.16	7.40923	3.16	8.09003
3.165	7.91821	3.165	7.57957
3.17	7.67669	3.17	7.81965
3.175	7.49556	3.175	7.99935
3.18	7.35973	3.18	8.13377
3.185	7.25788	3.185	8.23423
3.19	7.80698	3.19	7.68374
3.195	7.9825	3.195	7.50684
3.2	7.73229	3.2	7.75567
3.205	7.54464	3.205	7.94194
3.21	8.02941	3.21	7.4558
3.215	7.76973	3.215	7.71412
3.22	7.57498	3.22	7.90749
3.225	7.42894	3.225	8.05217
3.23	7.94491	3.23	7.53483
3.235	7.70863	3.235	7.76975
3.24	7.53143	3.24	7.94558
3.245	7.39856	3.245	8.07709
3.25	7.9244	3.25	7.54988
3.255	7.69553	3.255	7.77739
3.26	7.52389	3.26	7.94766
3.265	7.39518	3.265	8.07501
3.27	7.68562	3.27	7.78321
3.275	8.14708	3.275	7.32038
3.28	7.86992	3.28	7.59618
3.285	7.66207	3.285	7.80266
3.29	7.5062	3.29	7.95717
3.295	7.38932	3.295	8.07268
3.3	7.92716	3.3	7.53348
3.305	7.70729	3.305	7.75199
3.31	7.92936	3.31	7.52856
3.315	7.71406	3.315	7.74249
3.32	8.17809	3.32	7.2771
3.325	7.90286	3.325	7.55097
3.33	7.69646	3.33	7.756
3.335	8.16716	3.335	7.28394
3.34	7.89694	3.34	7.5528
3.345	8.08124	3.345	7.36713
3.35	7.83762	3.35	7.60938
3.355	7.65493	3.355	7.79071
3.36	7.51794	3.36	7.92634
3.365	7.41522	3.365	8.0277
3.37	7.96368	3.37	7.47788
3.375	7.75177	3.375	7.68842
3.38	7.97982	3.38	7.45901
3.385	7.76901	3.385	7.66846
3.39	7.61092	3.39	7.82518
3.395	7.49238	3.395	7.94235
3.4	7.4035	3.4	8.02987
3.405	7.96235	3.405	7.46966
3.41	7.75823	3.41	7.67241
3.415	7.99212	3.415	7.43716
3.42	7.78569	3.42	7.64223
3.425	7.63089	3.425	7.79566
3.43	7.51482	3.43	7.91037
3.435	8.05327	3.435	7.37055
3.44	7.83387	3.44	7.5886
3.445	8.05628	3.445	7.36482
3.45	7.84125	3.45	7.57848
3.455	7.68001	3.455	7.73837
3.46	7.5591	3.46	7.85791
3.465	7.85539	3.465	7.56026
3.47	8.32125	3.47	7.09303
3.475	8.0474	3.475	7.36552
3.48	7.84203	3.48	7.56952
3.485	7.68804	3.485	7.72215
3.49	7.95952	3.49	7.44931
3.495	7.78128	3.495	7.62618
3.5	8.27312	3.5	7.13298
3.505	7.78021	3.505	7.62452
3.51	7.8905	3.51	7.51287
3.515	9.78419	3.515	8.94862
3.52	9.17173	3.52	8.75605
3.525	8.71244	3.525	8.61128
3.53	9.38045	3.53	7.48993
3.535	8.87636	3.535	7.6537
3.54	8.49834	3.54	7.77617
3.545	8.60183	3.545	7.48074
3.55	8.29762	3.55	7.64067
3.555	8.06951	3.555	7.76027
3.56	7.89848	3.56	7.84963
3.565	8.1572	3.565	7.52934
